reason_type,bitmap_index,max_cost,mean_cost,min_cost,std_cost,n_samples,robustness
anti_reasons,001110011111111111001100000011100000000000110111001111111111000000001111111100011110000000000000000111100000000001110110000001110000000110000111110111101111000000111110011100011111110111110000011100000000110000000000110000000000000000111000000000000000110000011110000000011111000000011100001111001110000000011000111111111111111111001101100000000000000000000011100000111000000011000000000011110000000011111111100000000111111100000000000011111111100000000000011110000000000001100000000111100000000000000001100111110000000000011111111001110001110000000011111110001111111000000000001111110011100000011111100001100000000000110000000111000000000000111000011111100000000001100000000000011100000000001101111111101110110001100110000011000011100111000000000000111001111100011110011110000000001100011011100000000000000000000000000001100000000000000000000000000000000000000000,58.28484770059833,46.98024248613988,43.12185676637697,3.2110389137739563,29,0.3928661697854341
anti_reasons,001110011111111111001100000011100000000000110111001101111111000000001111111100011100000000000000000111100000000001111110000001100000111110000111000111101111000000111110011100011111110111110000001111000000110111111111110000000000000000111000000000000000110000011110000000011111000000011101111111001110000000111000000011111111111111001101110000000000000000000011000000111000000011000000000011110000000011011111100000000111111000000000000001111111110000000000011110000000000001110000000111100000000000000001100111110000000000011011111001100001111100000011110000001111111000000000001111110001100000011111100001100000000001110000000111000000000000111000000001100000000001110000000000011000000000001101111111101110110001111110000011110001110111000000000000111101111100011110011110000000001100011011100000000000000000000000000001100000000000000000000000000000000000000000,57.87182910965291,46.69228361798789,42.44198414182452,3.1352582459074934,29,0.39716844677444885
anti_reasons,001110011111111111001100000011100000000000110111001101111111000000001111111110011111100000000000000111100000000001111111000001110000111110000111000111111110000000111110011100011111110111110000001110000000110000000000110000000000000000111000000000000011110000011110000000011111000000011100001111001110000000111000111111111110111111001101110000000000000000000011000000111000000011000000000011111110000011011111100000000111111100000000000011111111000000000000011110000000000001110000000111100000000000000001110111100000000000011011111001110001111000000011110000001111111000000000001111110001100000011111100001100000000001110000000111000000000000110000000001100000000001100000000000011000000000001101111111101110110001111110000011110001100111000000000000111111111100011110011110000000001100011011100000000000000000000000000001100000000000000000000000000000000000000000,57.169352717924475,46.45750086436896,42.08988112817503,3.0466245668036227,29,0.40448590918828675
anti_reasons,001110011111111111001100000011100000000000110111001101111111000000001111111100011110000000000000000111100000000001111110000001110000000110000111000111101111000000111110011100011111100111110000001111000000110001111111110000000000000000111000000000000001110000011110000000111111000000011101111111001110000000011000111111111110111111001101111000000000000000000011110000111000000011000000000011110000000011011111100000000111111000000000000000011111110000000000011110000000000001110000000111100000000000000001100111110000000000011111111001110001110000000011100000001111110000000000001111110001110000011111100001100000000011110000000111000000000000111000011111100000000001100000000000011100000000001101111111101110110001100110000011110011100111000000000000111001111100011110011110000000001100011011100000000000000000000000000001100000000000000000000000000000000000000000,56.635409854702544,46.34154949735472,41.686494858545075,3.2030067983538077,29,0.4100478140135152
anti_reasons,001110011111111111001100000011100000000000110111001111111111000000001111111000011100000000000000000111100000000001111111000001100000000110000111000111111110000000111110011100011111100111110000001111000000110001111111110000000000000011111000000000000001110000011110000000000111000000011101111111001110000000011001111111111110111111001101100000000000000000000011100000111000000011100000000011110000000011011111100000000111111000000000000000011111000000000000011110000000000001110000000111100000000000000001100111110000000000011011111001100001111100000011100000001111111000000000001111110001111000011111100001100000000001110000000111000000000000111000011111100000000001100000000000011110000000001101111111101110110001100110000011110001100111000000000000111001111100011110011110000000001100011011100000000000000000000000000001100000000000000000000000000000000000000000,55.94720995927625,46.37193180808667,41.52727365011821,2.9663438552253667,29,0.4172165629242057
anti_reasons,001110011111111111001100000011100000000011110111001101111111000000001111111100000111000000000000000111100000000001110111000001100011111110000111100000111110000000110011011100011111110111110000011000000111110111111111100000000000000001111000000000000000011100001111110000011111000000011100001111001110000000110001111111001110111111001101110000000000000000011000000000111000000110000000000011111000000011111111100000000111111000000000001111000000111000000000011111111111100000110000000111100000000000000110000111110000000001111011111000110001111000000011110000001110011000000000001111110011100000011111000001111000000001110000000111000000000000111100110000000000000001100000000000011000000000001101111111101110110011111000011101100011100111000000000000111001111100011100011110000000111100011011100000000000000000000000000001100000000000000000000000000000000000000000,53.86172635996632,44.77771051014873,41.6141575253036,2.50912419867556,29,0.4389403504170175
anti_reasons,001110011111111111001100000011100000000011000111001111111111000000001111111100000111110000000000000111100000000001111111000001110011111110000111100000111111110000110011011100011111100111110001111000000111100111111111100000000000000000111000000000000000011100000011110000000111000000011101111111001110000000110001111111001110111111001101100000000000000000011000000000111000000111111000000011111000000011111111100000000111111111111000000111000000111110000000011110000000000000110000000111100000000000000111100111100000000001111011111000110001111000000011110000001110011000000000001111110011000000011111000001111000000000110000000111000000000000111100110000000000000001100000000000011000000000001101111111101110110011111000011101100011000111000000000000111111111100011100011110000000111000011011100000000000000000000000000001100000000000000000000000000000000000000000,53.416958196813994,44.84661579134339,42.21911929254914,2.3278663152678716,29,0.44357335211652094
anti_reasons,001110011111111111001100000011100000000011000111001111111111000000001111111110000111000000000000000111110000000001111111111111110011111110000111110000111110000000110011011100011111110111110001111000000111100001111111100000000000000001111000000000000000011100001111110000000111000000011101111111001110000000110001111110001110111111001101111000000000000000011000000000111000000110000000000011110000000011111111100000000111111110000000001111000000111110000000011100000000000000110000000111100000000000000111000111110000000001111111110000110001111000000011110000001110011000000000001111110011100000011111000001100000000011110000000111000000000000110000111111100000000001100000000000011000000000001101111111101110110011111000011101100011110111000000000000111101111100011100011110000000111100011011100000000000000000000000000001100000000000000000000000000000000000000000,53.39183256024614,45.085540607575055,41.90169496827071,2.1195509950969256,29,0.4438350774974361
anti_reasons,001110011111111111001100000011100000000011110111001101111111000000001111111100000110000000000000000111110000000001110111111101100011111100000111000000111110000000110011111100011111110111110001111000000111110001111111100000000000000111111000000000000000011100000011110000000111000000011100001111001110000000110001111111001110111111001101110000000000000000011000000000111000000111000000000011110000000011111111100000000111111111000000000111000000110000000000011100000000000000110000000111100000000000000111000111111100000001110011110000110001111000000011100000001110011000000000001111110011000000011111000001100000000000110000000111000000000000111000110000000000000001110000000000011000000000001101111111101110110011111000011101110011000111000000000000111101111100011100011110000000111100011011100000000000000000000000000001100000000000000000000000000000000000000000,53.33797600909706,44.38352567582262,40.993856160537625,2.580673883806064,29,0.44439608323857227
anti_reasons,001110011111111111001100000011100000000011000111001101111111000000001111111000000111100000000000000111111100000001111110000001100011111110000111100000111111000000110011011100111111110111110001111000000001110111111111100000000000000001111000000000000000011100000011110000011111000000011101111111001110000000110001111111001110111111001101110000000000000000011000000000111000000111100000000011111100000011111111100000000111111000000000000111000000111110000000011110000000000000110000000111100000000000000110000111111000000001110011110000110001110000000011100000001110011000000000001111110011000000011111000001100000000001110000000111000000000000111000111000000000000001110000000000011000000000001101111111101110110011000000011101111011100111000000000000111001111100011100011110000000111000011011100000000000000000000000000001100000000000000000000000000000000000000000,53.03659579402811,43.386502003328964,40.18365713891911,2.6035281600481026,29,0.4475354604788738
anti_reasons,001110011111111111001100000011100000000011110111001111111111000000001111111110000111100000000000000111100000000001110111100001110011111110000111100000111111100000110011011100011111110111110000011000000111110001111111100000000000000001111000000000000000111000000011110000000111000000011101111111001110000000110001111111001110111111001101111000000000000000011000000000111000000111000000000011110000000011111111100000000111111111000000001111000000111000000000011110000000000000110000000111100000000000000111110111111111000001110011111000110001110000000011100000001110011000000000001111110011110000011111000001100000000000110000000111000000000000111100111000000000000001110000000000011000000000001101111111101110110011000000011101110011000111000000000000111001111100011100011110000000111000011011100000000000000000000000000001100000000000000000000000000000000000000000,52.951678555273915,43.870014664990734,41.05496210350673,2.2853498766696454,29,0.44842001504923
anti_reasons,001110011111111111001100000011100000000011110111001101111111000000001111111000000111100000000000000111100000000001110111000001100011111100000111000000111111100000110011011100011111100111110000011000000111110001111111100000000000000011111000000000000000111100011111110000011111000000011100001111001110000000110001111111001110111111001101110000000000000000011000000000111000000111000000000011111000000011111111100000000111111110000000001111000000111111000000011000000000000000110000000111100000000000000111100111110000000001111011110000110001111000000011110000001110011000000000001111110011111000011111000001100000000011110000000111000000000000110000110000000000000001100000000000011000000000001101111111101110110011000000011101110011100111000000000000111001111100011100011110000000111000011011100000000000000000000000000001100000000000000000000000000000000000000000,52.94254032921508,43.69411377688091,40.68463180942103,2.5654052687410136,29,0.44851520490400965
anti_reasons,001110011111111111001100000011100000000011000111001111111111000000001111111100000111110000000000000111100000000001111111000001100011111100000111000000111110000000110011011100011111110111110000011000000111100001111111100000000000000011111000000000000000011100001111110000000111000000011100001111001110000000110001111111001110111111001101110000000000000000011000000000111000000110000000000011110000000011111111100000000111111000000000000011000000111000000000011100000000000000110000000111100000000000000111000111100000000001111011111000110001110000000011110000001110011000000000001111110011100000011111000001111000000000110000000111000000000000111000110000000000000001100000000000011000000000001101111111101110110011111000011001100011110111000000000000111101111100011100011110000000111000011011100000000000000000000000000001100000000000000000000000000000000000000000,52.93226310608728,43.52457632927487,40.30446825864721,2.5169138226927648,29,0.44862225931159083
anti_reasons,001110011111111111001100000011100000000011110111001101111111000000001111111000000110000000000000000111100000000001111111100001110011111110000111000000111111100000110011011100011111110111110001111000000111110111111111100000000000000000111000000000000000011100001111110000011111000000011101111111001110000000110001111110001110111111001101110000000000000000011000000000111000000110000000000011110000000011111111100000000111111000000000001111000000110000000000011100000000000000110000000111100000000000000111000111111000000001111011110000110001111000000011110000001110011000000000001111110011111000011111000001100000000011110000000111000000000000111000111000000000000001100000000000011000000000001101111111101110110011000000011101100011000111000000000000111001111100011100011110000000111100011011100000000000000000000000000001100000000000000000000000000000000000000000,52.92971512610377,43.68193303995163,40.22409213502202,2.5182659791429827,29,0.44864880076975233
anti_reasons,001110011111111111001100000011100000000011110111001111111111000000001111111000000111100000000000000111111100000001110110000001100011111100000111110000111111000000110011011100011111100111110000011000000111110111111111100000000000000000111000000000000001111000000011110000011111000000011101111111001110000000110001111110001110111111001101110000000000000000011000000000111000000110000000000011110000000011111111100000000111111000000000000011000000110000000000011110000000000000110000000111100000000000000110000111110000000001111111110000110001111000000011100000001110011000000000001111110011100000011111000001111000000011110000000111000000000000110000111111100000000001111000000000011000000000001101111111101110110011111000011001100011000111000000000000111001111100011100011110000000111100011011100000000000000000000000000001100000000000000000000000000000000000000000,52.86054241326306,44.353902117858915,41.418612368515454,2.2316231718395017,29,0.44936934986184307
anti_reasons,001110011111111111001100000011100000000011110111001101111111000000001111111000000111100000000000000111100000000001111111000001110011111100000111100000111110000000110011011100011111110111110000011000000111100111111111100000000000000111111000000000000000111100001111110000011111000000011101111111001110000000110001111111001110111111001101100000000000000000011000000000111000000111000000000011111110000011111111100000000111111110000000000011000000110000000000011100000000000000110000000111100000000000000110000111100000000001110011111000110001110000000011100000001110011000000000001111110011000000011111000001100000000000110000000111000000000000110000110000000000000001111111000000011000000000001101111111101110110011111000011101100011100111000000000000111111111100011100011110000000111100011011100000000000000000000000000001100000000000000000000000000000000000000000,52.8540830204506,44.162163726683644,41.03816536631492,2.4192407318132023,29,0.4494366352036395
anti_reasons,001110011111111111001100000011100000000011110111001101111111000000001111111000000111100000000000000111100000000001110111111101100011111110000111110000111110000000110011011100011111100111110001111000000111110111111111100000000000000001111000000000000000111000000011110000011111000000011100001111001110000000110001111111001110111111001101111000000000000000011000000000111000000110000000000011111000000011111111100000000111111110000000001111000000111111000000011100000000000000110000000111100000000000000111000111100000000001111011110000110001110000000011100000001110011000000000001111110011100000011111000001111000000001110000000111000000000000111100111111100000000001100000000000011000000000001101111111101110110011000000011101100011110111000000000000111111111100011100011110000000111100011011100000000000000000000000000001100000000000000000000000000000000000000000,52.766205353206935,43.57211464790925,40.06228683865405,2.4966080104023964,29,0.4503520275707611
anti_reasons,001110011111111111001100000011100000000011110111001101111111000000001111111000000111000000000000000111100000000001111110000001100011111100000111000000111111000000110011011100011111110111110001111000000111100001111111100000000000000111111000000000000001111000000011110000011111000000011100001111001110000000110001111111001110111111001101100000000000000000011000000000111000000110000000000011111100000011111111100000000111111110000000001111000000111000000000011000000000000000110000000111100000000000000110000111100000000001110011111000110001111100000011100000001110011000000000001111110011000000011111000001111000000011110000000111000000000000111000111111100000000001110000000000011000000000001101111111101110110011000000011101110011100111000000000000111001111100011100011110000000111100011011100000000000000000000000000001100000000000000000000000000000000000000000,52.61800566606712,43.30941292520579,40.17434368142936,2.4686139628789667,29,0.45189577431180084
anti_reasons,001110011111111111001100000011100000000011110111001101111111000000001111111000000111100000000000000111100000000001111111000001110011111110000111100000111110000000110011011100011111100111110001111000000001100111111111100000000000000000111000000000000000111000000011110000000111000000011101111111001110000000110001111111001110111111001101110000000000000000011000000000111000000111000000000011111000000011111111100000000111111000000000000011000000111000000000011000000000000000110000000111100000000000000111000111110000000001111011111000110001111000000011110000001110011000000000001111110011100000011111000001111000000011110000000111000000000000110000111111111110000001110000000000011000000000001101111111101110110011111000011101100011110111000000000000111001111100011100011110000000111100011011100000000000000000000000000001100000000000000000000000000000000000000000,52.610967206713646,43.854071042072675,40.32423442206213,2.3257218877056642,29,0.4519690915967328
anti_reasons,001110011111111111001100000011100000000011110111001101111111000000001111111000000111000000000000000111100000000001111110000001110011111110000111100000111110000000110011011100011111110111110001111000000001110001111111100000000000000001111000000000000000011000000011110000000111000000011101111111001110000000110001111110001110111111001101100000000000000000011000000000111000000110000000000011111000000011111111100000000111111000000000001111000000111000000000011100000000000000110000000111100000000000000111000111111000000001111011110000110001111000000011110000001110011000000000001111110011000000011111000001111000000001110000000111000000000000111000111000000000000001100000000000011000000000001101111111101110110111000000011001111011100111000000000000111001111100011100011110000000111100011011100000000000000000000000000001100000000000000000000000000000000000000000,52.572926154614635,42.98107101800937,39.254905784138636,2.538459401907833,29,0.45236535255609756
anti_reasons,001110011111111111001100000011100000000011110111001111111111000000001111111000000111110000000000000111100000000001111110000001110011111110000111000000111110000000110011011100011111110111110000011000000001100111111111100000000000000000111000000000000000011100000011110000011111000000011101111111001110000000110001111110001110111111001101100000000000000000011000000000111000000111000000000011110000000011111111100000000111111110000000000011000000111000000000011110000000000000110000000111100000000000000111000111100000000001111111110000110001111000000011110000001110011000000000001111110011100000011111000001111000000000110000000111000000000000111100111000000000000001110000000000011000000000001101111111101110110011000000011101100111000111000000000000111001111100011100011110000000111100011011100000000000000000000000000001100000000000000000000000000000000000000000,52.399325665378946,43.26185875454688,40.30201598877793,2.383304575128417,29,0.454173690985636
anti_reasons,001110011111111111001100000011100000000011110111001111111111000000001111111000000111110000000000000111110000000001111111000001110011111100000111000000111111000000110011011100011111100111110001111000000111100001111111100000000000000011111000000000000000111100000011110000000111000000011101111111001110000000110001111110001110111111001101100000000000000000011000000000111000000110000000000011110000000011111111100000000111111110000000001111000000110000000000011000000000000000110000000111100000000000000110000111110000000001110011111000110001110000000011111100001110011000000000001111110011110000011111000001100000000001110000000111000000000000110000110000000000000001111000000000011000000000001101111111101110110011111000011101110011100111000000000000111101111100011100011110000000111100011011100000000000000000000000000001100000000000000000000000000000000000000000,52.36942773625633,43.46578985941683,40.508655604333754,2.3479700673041686,29,0.45448512774732996
anti_reasons,001110011111111111001100000011100000000011000111001111111111000000001111111100000111100000000000000111111100000001111110000001100011111110000111111000111110000000110011011100011111100111110001111000000111100001111111100000000000000011111000000000000001111000001111110000011111000000011101111111001110000000110001111111001110111111001101100000000000000000011000000000111000000110000000000011111100000011111111100000000111111110000000000011000000111000000000011000000000000000110000000111100000000000000110000111110000000001110011110000110001111110000011100000001110011000000000001111110011000000011111000001111000000011110000000111000000000000111000110000000000000001110000000000011000000000001101111111101110110011000000011101100011000111000000000000111111111100011100011110000000111000011011100000000000000000000000000001100000000000000000000000000000000000000000,52.349401274686905,43.645716318271504,40.290443820711936,2.2703472045134694,29,0.4546937367220114
anti_reasons,001110011111111111001100000011100000000011000111001111111111000000001111111100000110000000000000000111100000000001110111000001100011111100000111100000111110000000110011011100011111110111110001111000000001110111111111100000000000000001111000000000000000011000000011110000000111000000011101111111001110000000110001111111001110111111001101111000000000000000011000000000111000000111110000000011111000000011111111100000000111111000000000000011000000111000000000011000000000000000110000000111100000000000000110000111111100000001111011111000110001110000000011100000001110011000000000001111110011100000011111000001111000000000110000000111000000000000111000110000000000000001100000000000011000000000001101111111101110110011000000011001100111100111000000000000111101111100011100011110000000111000011011100000000000000000000000000001100000000000000000000000000000000000000000,52.319355784191835,42.4440587284965,39.17644772333158,2.6811337920785214,29,0.455006710581335
anti_reasons,001110011111111111001100000011100000000011110111001101111111000000001111111000000111100000000000000111110000000001110111000001100011111100000111000000111110000000110011011100011111110111110000011000000001110001111111100000000000000001111000000000000000011000000011110000000111000000011101111111001110000000110001111110001110111111001101100000000000000000011000000000111000000111000000000011111000000011111111100000000111111000000000000011000000111000000000011000000000000000110000000111100000000000000111100111110000000001110011111000110001110000000011110000001110011000000000001111110011000000011111000001111000000011110000000111000000000000111000111000000000000001100000000000011000000000001101111111101110110011111000011001111011100111000000000000111101111100011100011110000000111100011011100000000000000000000000000001100000000000000000000000000000000000000000,52.197870409520746,42.86633209091797,39.59834576513212,2.4951111495724185,29,0.45627218323415886
anti_reasons,001110011111111111111100000011100000000011110111001101111111000000001111111100000110000000000000000111110000000001110111000001100011111110000111100000111110000000110011011100011111100111110001111000000111100001111111100000000000000000111000000000000000111000000011110000000111000000011101111111001110000000110001111111001110111111001101110000000000000000011000000000111000000111100000000011111110000011111111100000000111111111000000001111000000110000000000011110000000000000110000000111100000000000000111000111111000000001110011110000110001110000000011100000001110011000000000001111110011000000011111000001111000000001110000000111000000000000111000110000000000000001100000000000011000000000001101111111101110110011111000011101100011100111000000000000111101111100011100011110000000111000011011100000000000000000000000000001100000000000000000000000000000000000000000,52.196395574531564,43.02704902049271,39.919382129546115,2.57623156385358,29,0.45628754609862954
anti_reasons,001110011111111111001100000011100000000011110111001101111111000000001111111100000111110000000000000111100000000001110111000001100011111100000111000000111110000000110011011100011111100111110000011000000111100001111111100000000000000001111000000000000000011100001111110000011111000000011100001111001110000000110001111111001110111111001101110000000000000000011000000000111000000111100000000011111000000011111111100000000111111111000000000011000000111000000000011000000000000000110000000111100000000000000111000111110000000001111011110000110001110000000011100000001110011000000000001111110011100000011111000001100000000001110000000111000000000000111000110000000000000001100000000000011000000000001101111111101110110011000000011001100011000111000000000000111111111100011100011110000000111100011011100000000000000000000000000001100000000000000000000000000000000000000000,52.138860061720706,42.24548760474801,38.673425857194225,2.86099129348906,29,0.456886874357076
anti_reasons,001110011111111111001100000011100000000011000111001111111111000000001111111000000110000000000000000111100000000001110110000001100011111110000111000000111111000000110011011100011111100111110001111000000001100001111111100000000000000000111000000000000000011000011111110000011111000000011101111111001110000000110001111111001110111111001101100000000000000000011000000000111000000111000000000011111000000011111111100000000111111110000000000111000000110000000000011000000000000000110000000111100000000000000110000111100000000001111011111000110001111000000011100000001110011000000000001111110011000000011111000001111000000001110000000111000000000000111100110000000000000001100000000000011000000000001101111111101110110011000000011101100011100111000000000000111001111100011100011110000000111000011011100000000000000000000000000001100000000000000000000000000000000000000000,51.89030544347618,42.63783373476541,39.750761507259085,2.4210730846054784,29,0.45947598496378983
anti_reasons,001110011111111111001100000011100000000011000111001101111111000000001111111000000110000000000000000111110000000001110110000001110011111100000111000000111110000000110011011100111111110111110000011000000001110001111111100000000000000000111000000000000000011100001111110000000111000000011101111111001110000000110001111110001110111111001101110000000000000000011000000000111000001111000000000011110000000011111111100000000111111110000000001111000000110000000000011000000000000000110000000111100000000000000110000111100000000001110011110000110001111000000011100000001110011000000000001111110011000000011111000001100000000000110000000111000000000000111100111000000000000001100000000000011000000000001101111111101110110011000000011101100011100111000000000000111101111100011100011110000000111000011011100000000000000000000000000001100000000000000000000000000000000000000000,51.83666341647495,42.31283191431164,38.585944408907764,2.7296013465801883,29,0.46003475607838595
anti_reasons,001110011111111111001100000011100000000011110111001111111111000000001111111000000110000000000000000111100000000001111111111101110011111110000111100000111110000000110011011100011111110111110000011000000001110111111111100000000000000011111000000000000000011000000011110000011111000000011101111111111110000000110001111110001110111111001101100000000000000000011000000000111000000111000000000011111000000011111111100000000111111000000000000011000000111110000000011000000000000000110000000111100000000000000111000111100000000001111011111000110001111000000011100000001110011000000000001111110011110000011111000001100000000000110000000111000000000000111100110000000000000001100000000000011000000000001101111111101110110011000000011001100011000111000000000000111001111100011100011110000000111000011011100000000000000000000000000001100000000000000000000000000000000000000000,51.755120659880546,43.168008074023696,39.98258638107339,2.1258382996627057,29,0.460884159792911
anti_reasons,001110011111111111001100000011100000000011000111001111111111000000001111111000000110000000000000000111100000000001110111000001110011111100000111000000111110000000110011011100011111110111110000011000000001100001111111100000000000000000111000000000000000011000011111110000011111000000011100001111001110000000110001111110001110111111001101100000000000000000011000000000111000000110000000000011111000000011111111100000000111111110000000001111000000110000000000011100000000000000110000000111100000000000000110000111100000000001111011110000110001110000000011110000001110011000000000001111110011000000011111000001100000000000110000000111000000000000110000111000000000000001100000000000011000000000001101111111101110110011111000011001110011000111000000000000111001111100011100011110000000111000011011100000000000000000000000000001100000000000000000000000000000000000000000,51.26263018448614,42.28772489087719,39.300157601563164,2.3518367439898857,29,0.4660142689116027
anti_reasons,001110011111111111001100000011100000000011000111001111111111000000001111111100000111100000000000000111110000000001111111000001100011111110000111100000111110000000110011011100011111100111110001111000000111100001111111100000000000000000111000000000000000111000000011110000011111000000011101111111111110000000110001111110001110111111001101100000000000000000011000000000111000000110000000000011110000000011111111100000000111111000000000001111000000110000000000011000000000000000110000000111100000000000000110000111100000000001110011110000110001110000000011100000001110011000000000001111110011100000011111000001100000000000110000000111000000000000111000110000000000000001111000000000011000000000001101111111101110110011111000011101110011000111000000000000111001111100011100011110000000111000011011100000000000000000000000000001100000000000000000000000000000000000000000,51.17264976684237,42.620031616608,39.75281943756256,2.104675364549524,29,0.46695156492872536
anti_reasons,110000011111111110111100001110000000011100001110000111111111000110000000001100001100000000000000001110000000001111111011000001111100001110110000000111110001100111110001101100110000110111000000011000000011000000111100000000000000000011100000000000000000110000110000000000000001100000011101100000001110000000111000000011111110111111001100000110000000000001111100000000000110000000000110000011100000000110000000001111100110000000011000001100000000000000000001100000000011100000110000111110000000111111000000000000000011111101111100111001100000000000011000000110011110011100000000001111100011000000011111000000111000000011000000000111100000001111000000000000001100000000110000000000001110000000001101111111111110111011110000011011000001100000000000000011001101111100000110000110000000001100011111100000000000000000000000000000000000000000000000000000000000000000111000,46.7494143037694,39.51557221789089,35.50940922964086,2.240257418698273,29,0.5130269343357354
anti_reasons,000011011111111100111000001110000000111111001100001101100000000011110000001100000011000000000000000000110000001110000000001101110000000110011111000000110001111000110011111100011100111001111000000110000111000001111111100000000000000011100000000000000000011100001110000000000011000000011100011000001110000000111000000011110111111111111100110000000000000000110000000000000011001100000000000011000000001100011111100000011100000110000111000000000000110000000000001100000000000001100000011000000000000001110000000000110000000000011011110000110000001100000000110000001110011000011000000001111110000000011111000011000000000111000000000111000000000000110000011111000000000000011110000000001100000000001111111111001110110000011110000001100001100111000000000000111001100000001100011110000000001100011000000000011110000000000000000000000011000000000000000000000000000000000000,46.04060630548754,38.74128263776939,31.96784130959773,3.1987412907997395,29,0.5204103509845048
anti_reasons,000011011111111100111000001110000000000000111100000111100000000011000000111000000110000000000000000000110000000110000110000000110000000110000000110111100001111000110011111100011100111001111000000011110111000000000000110000000000000011100000000000000000011100011110000000000001110001100000011000001110000000111000000011110110111111001100011000000000000000110000000000111000001100000000000011000000000011011111100000000110011100000000001100000000110000000000001100000000000000110000011000000000000001100000000000110000000000001111110001100000011000000000110000001111110011110000000001110001100000011111000001100000000110000000000000011000001111100000011111000000000000011110000000001100000000001111111111001110110000111110000011000111000111000000000000001101100000000110011110000000001100011000000111000000000000000000000000001110000000000000000000000000000000000000,45.25831770526173,38.41959010056824,32.37025870735616,2.9377043134554692,29,0.5285591905701903
anti_reasons,000111101111111100011100000000000011000000110000110110000110000111111111000001100000000000000000110000000111110001100000001101111011111000000000110011000001100011111111111100011100110011110000000110000111000111000000000000000000011000000000000000000000110000001111110000000001110011000000011111001110110000000011100000000111111011111111100000000000000001100000000000000110000001100000000000000011001100011111110000000011011110000001100000000000000000110000000110000000000001100000111111111000000001110000000000000001100011111111111000110000011111100111111001111110011000000011100001110110000000000000011100000011000000000001100000110000000000110000111110000000000000000011000000011100000000001101110111100011110011100011110011100111000000000000011000001101111100000110110000000000001111100000000000000000000001100000000000000000000000000000000000000000000001100000,42.52532189059281,39.00366769890957,35.6186229940171,1.9417910077722638,29,0.5570278969729916
